# Pulseq sequence file
# Created by MATLAB mr toolbox

[VERSION]
major 1
minor 3
revision 1

[DEFINITIONS]
FOV 0.048 0.25 0.25 
Name se_rad 
TotalDuration 39.9133 

# Format of blocks:
#  #  D RF  GX  GY  GZ ADC EXT
[BLOCKS]
   1  0  1   1   0   0  0  0
   2  0  0   0   2   3  0  0
   3  0  2   4   0   0  0  0
   4  1  0   5   6   7  0  0
   5  0  1   1   0   0  0  0
   6  0  0   0   8   9  0  0
   7  0  2   4   0   0  0  0
   8  1  0   5  10  11  0  0
   9  0  1   1   0   0  0  0
  10  0  0   0  12  13  0  0
  11  0  2   4   0   0  0  0
  12  1  0   5  14  15  0  0
  13  0  1   1   0   0  0  0
  14  0  0   0  16  17  0  0
  15  0  2   4   0   0  0  0
  16  1  0   5  18  19  0  0
  17  0  1   1   0   0  0  0
  18  0  0   0  20  21  0  0
  19  0  2   4   0   0  0  0
  20  1  0   5  22  23  0  0
  21  0  1   1   0   0  0  0
  22  0  0   0  24  25  0  0
  23  0  2   4   0   0  0  0
  24  1  0   5  26  27  0  0
  25  0  1   1   0   0  0  0
  26  0  0   0  28  29  0  0
  27  0  2   4   0   0  0  0
  28  1  0   5  30  31  0  0
  29  0  1   1   0   0  0  0
  30  0  0   0  32  33  0  0
  31  0  2   4   0   0  0  0
  32  1  0   5  34  35  0  0
  33  0  1   1   0   0  0  0
  34  0  0   0  36  37  0  0
  35  0  2   4   0   0  0  0
  36  1  0   5  38  39  0  0
  37  0  1   1   0   0  0  0
  38  0  0   0  40  41  0  0
  39  0  2   4   0   0  0  0
  40  1  0   5  42  43  0  0
  41  0  1   1   0   0  0  0
  42  0  0   0  44   0  0  0
  43  0  2   4   0   0  0  0
  44  1  0   5  45   0  1  0
  45  0  1   1   0   0  0  0
  46  0  0   0  40  46  0  0
  47  0  2   4   0   0  0  0
  48  1  0   5  42  47  1  0
  49  0  1   1   0   0  0  0
  50  0  0   0  36  48  0  0
  51  0  2   4   0   0  0  0
  52  1  0   5  38  49  1  0
  53  0  1   1   0   0  0  0
  54  0  0   0  32  50  0  0
  55  0  2   4   0   0  0  0
  56  1  0   5  34  51  1  0
  57  0  1   1   0   0  0  0
  58  0  0   0  28  52  0  0
  59  0  2   4   0   0  0  0
  60  1  0   5  30  53  1  0
  61  0  1   1   0   0  0  0
  62  0  0   0  24  54  0  0
  63  0  2   4   0   0  0  0
  64  1  0   5  26  55  1  0
  65  0  1   1   0   0  0  0
  66  0  0   0  20  56  0  0
  67  0  2   4   0   0  0  0
  68  1  0   5  22  57  1  0
  69  0  1   1   0   0  0  0
  70  0  0   0  16  58  0  0
  71  0  2   4   0   0  0  0
  72  1  0   5  18  59  1  0
  73  0  1   1   0   0  0  0
  74  0  0   0  12  60  0  0
  75  0  2   4   0   0  0  0
  76  1  0   5  14  61  1  0
  77  0  1   1   0   0  0  0
  78  0  0   0   8  62  0  0
  79  0  2   4   0   0  0  0
  80  1  0   5  10  63  1  0
  81  0  1   1   0   0  0  0
  82  0  0   0   2  64  0  0
  83  0  2   4   0   0  0  0
  84  1  0   5   6  65  1  0
  85  0  1   1   0   0  0  0
  86  0  0   0  66  67  0  0
  87  0  2   4   0   0  0  0
  88  1  0   5  68  69  1  0
  89  0  1   1   0   0  0  0
  90  0  0   0  70  71  0  0
  91  0  2   4   0   0  0  0
  92  1  0   5  72  73  1  0
  93  0  1   1   0   0  0  0
  94  0  0   0  74  75  0  0
  95  0  2   4   0   0  0  0
  96  1  0   5  76  77  1  0
  97  0  1   1   0   0  0  0
  98  0  0   0  78  79  0  0
  99  0  2   4   0   0  0  0
 100  1  0   5  80  81  1  0
 101  0  1   1   0   0  0  0
 102  0  0   0  82  83  0  0
 103  0  2   4   0   0  0  0
 104  1  0   5  84  85  1  0
 105  0  1   1   0   0  0  0
 106  0  0   0  86  87  0  0
 107  0  2   4   0   0  0  0
 108  1  0   5  88  89  1  0
 109  0  1   1   0   0  0  0
 110  0  0   0  90  91  0  0
 111  0  2   4   0   0  0  0
 112  1  0   5  92  93  1  0
 113  0  1   1   0   0  0  0
 114  0  0   0  94  95  0  0
 115  0  2   4   0   0  0  0
 116  1  0   5  96  97  1  0
 117  0  1   1   0   0  0  0
 118  0  0   0  98  99  0  0
 119  0  2   4   0   0  0  0
 120  1  0   5 100 101  1  0
 121  0  1   1   0   0  0  0
 122  0  0   0 102 103  0  0
 123  0  2   4   0   0  0  0
 124  1  0   5 104 105  1  0
 125  0  1   1   0   0  0  0
 126  0  0   0 106 107  0  0
 127  0  2   4   0   0  0  0
 128  1  0   5 108 109  1  0
 129  0  1   1   0   0  0  0
 130  0  0   0 110 111  0  0
 131  0  2   4   0   0  0  0
 132  1  0   5 112 113  1  0
 133  0  1   1   0   0  0  0
 134  0  0   0 114 115  0  0
 135  0  2   4   0   0  0  0
 136  1  0   5 116 117  1  0
 137  0  1   1   0   0  0  0
 138  0  0   0 118 119  0  0
 139  0  2   4   0   0  0  0
 140  1  0   5 120 121  1  0
 141  0  1   1   0   0  0  0
 142  0  0   0 122 123  0  0
 143  0  2   4   0   0  0  0
 144  1  0   5 124 125  1  0
 145  0  1   1   0   0  0  0
 146  0  0   0 126 127  0  0
 147  0  2   4   0   0  0  0
 148  1  0   5 128 129  1  0
 149  0  1   1   0   0  0  0
 150  0  0   0 130 131  0  0
 151  0  2   4   0   0  0  0
 152  1  0   5 132 133  1  0
 153  0  1   1   0   0  0  0
 154  0  0   0 134 135  0  0
 155  0  2   4   0   0  0  0
 156  1  0   5 136 137  1  0
 157  0  1   1   0   0  0  0
 158  0  0   0 138 139  0  0
 159  0  2   4   0   0  0  0
 160  1  0   5 140 141  1  0
 161  0  1   1   0   0  0  0
 162  0  0   0 142 143  0  0
 163  0  2   4   0   0  0  0
 164  1  0   5 144 145  1  0
 165  0  1   1   0   0  0  0
 166  0  0   0 146 147  0  0
 167  0  2   4   0   0  0  0
 168  1  0   5 148 149  1  0
 169  0  1   1   0   0  0  0
 170  0  0   0 150 151  0  0
 171  0  2   4   0   0  0  0
 172  1  0   5 152 153  1  0
 173  0  1   1   0   0  0  0
 174  0  0   0 154 155  0  0
 175  0  2   4   0   0  0  0
 176  1  0   5 156 157  1  0
 177  0  1   1   0   0  0  0
 178  0  0   0 158 159  0  0
 179  0  2   4   0   0  0  0
 180  1  0   5 160 161  1  0
 181  0  1   1   0   0  0  0
 182  0  0   0 162 163  0  0
 183  0  2   4   0   0  0  0
 184  1  0   5 164 165  1  0
 185  0  1   1   0   0  0  0
 186  0  0   0 166 167  0  0
 187  0  2   4   0   0  0  0
 188  1  0   5 168 169  1  0
 189  0  1   1   0   0  0  0
 190  0  0   0 170 171  0  0
 191  0  2   4   0   0  0  0
 192  1  0   5 172 173  1  0
 193  0  1   1   0   0  0  0
 194  0  0   0 174 175  0  0
 195  0  2   4   0   0  0  0
 196  1  0   5 176 177  1  0
 197  0  1   1   0   0  0  0
 198  0  0   0 178 179  0  0
 199  0  2   4   0   0  0  0
 200  1  0   5 180 181  1  0
 201  0  1   1   0   0  0  0
 202  0  0   0 182 183  0  0
 203  0  2   4   0   0  0  0
 204  1  0   5 184 185  1  0
 205  0  1   1   0   0  0  0
 206  0  0   0 186 187  0  0
 207  0  2   4   0   0  0  0
 208  1  0   5 188 189  1  0
 209  0  1   1   0   0  0  0
 210  0  0   0 190 191  0  0
 211  0  2   4   0   0  0  0
 212  1  0   5 192 193  1  0
 213  0  1   1   0   0  0  0
 214  0  0   0 194 195  0  0
 215  0  2   4   0   0  0  0
 216  1  0   5 196 197  1  0
 217  0  1   1   0   0  0  0
 218  0  0   0 198 199  0  0
 219  0  2   4   0   0  0  0
 220  1  0   5 200 201  1  0
 221  0  1   1   0   0  0  0
 222  0  0   0 202 203  0  0
 223  0  2   4   0   0  0  0
 224  1  0   5 204 205  1  0
 225  0  1   1   0   0  0  0
 226  0  0   0 206 207  0  0
 227  0  2   4   0   0  0  0
 228  1  0   5 208 209  1  0
 229  0  1   1   0   0  0  0
 230  0  0   0 210 211  0  0
 231  0  2   4   0   0  0  0
 232  1  0   5 212 213  1  0
 233  0  1   1   0   0  0  0
 234  0  0   0 214 215  0  0
 235  0  2   4   0   0  0  0
 236  1  0   5 216 217  1  0
 237  0  1   1   0   0  0  0
 238  0  0   0 218 219  0  0
 239  0  2   4   0   0  0  0
 240  1  0   5 220 221  1  0
 241  0  1   1   0   0  0  0
 242  0  0   0 222 223  0  0
 243  0  2   4   0   0  0  0
 244  1  0   5 224 225  1  0
 245  0  1   1   0   0  0  0
 246  0  0   0 226 227  0  0
 247  0  2   4   0   0  0  0
 248  1  0   5 228 229  1  0
 249  0  1   1   0   0  0  0
 250  0  0   0 230 231  0  0
 251  0  2   4   0   0  0  0
 252  1  0   5 232 233  1  0
 253  0  1   1   0   0  0  0
 254  0  0   0 234 235  0  0
 255  0  2   4   0   0  0  0
 256  1  0   5 236 237  1  0
 257  0  1   1   0   0  0  0
 258  0  0   0 238 239  0  0
 259  0  2   4   0   0  0  0
 260  1  0   5 240 241  1  0
 261  0  1   1   0   0  0  0
 262  0  0   0 242 243  0  0
 263  0  2   4   0   0  0  0
 264  1  0   5 244 245  1  0
 265  0  1   1   0   0  0  0
 266  0  0   0 246 247  0  0
 267  0  2   4   0   0  0  0
 268  1  0   5 248 249  1  0
 269  0  1   1   0   0  0  0
 270  0  0   0 250 251  0  0
 271  0  2   4   0   0  0  0
 272  1  0   5 252 253  1  0
 273  0  1   1   0   0  0  0
 274  0  0   0 254 255  0  0
 275  0  2   4   0   0  0  0
 276  1  0   5 256 257  1  0
 277  0  1   1   0   0  0  0
 278  0  0   0 258 259  0  0
 279  0  2   4   0   0  0  0
 280  1  0   5 260 261  1  0
 281  0  1   1   0   0  0  0
 282  0  0   0 262 263  0  0
 283  0  2   4   0   0  0  0
 284  1  0   5 264 265  1  0
 285  0  1   1   0   0  0  0
 286  0  0   0 266 267  0  0
 287  0  2   4   0   0  0  0
 288  1  0   5 268 269  1  0
 289  0  1   1   0   0  0  0
 290  0  0   0 270 271  0  0
 291  0  2   4   0   0  0  0
 292  1  0   5 272 273  1  0
 293  0  1   1   0   0  0  0
 294  0  0   0 274 275  0  0
 295  0  2   4   0   0  0  0
 296  1  0   5 276 277  1  0
 297  0  1   1   0   0  0  0
 298  0  0   0 278 278  0  0
 299  0  2   4   0   0  0  0
 300  1  0   5 279 279  1  0
 301  0  1   1   0   0  0  0
 302  0  0   0 275 274  0  0
 303  0  2   4   0   0  0  0
 304  1  0   5 277 276  1  0
 305  0  1   1   0   0  0  0
 306  0  0   0 271 270  0  0
 307  0  2   4   0   0  0  0
 308  1  0   5 273 272  1  0
 309  0  1   1   0   0  0  0
 310  0  0   0 267 266  0  0
 311  0  2   4   0   0  0  0
 312  1  0   5 269 268  1  0
 313  0  1   1   0   0  0  0
 314  0  0   0 263 262  0  0
 315  0  2   4   0   0  0  0
 316  1  0   5 265 264  1  0
 317  0  1   1   0   0  0  0
 318  0  0   0 259 258  0  0
 319  0  2   4   0   0  0  0
 320  1  0   5 261 260  1  0
 321  0  1   1   0   0  0  0
 322  0  0   0 255 254  0  0
 323  0  2   4   0   0  0  0
 324  1  0   5 257 256  1  0
 325  0  1   1   0   0  0  0
 326  0  0   0 251 250  0  0
 327  0  2   4   0   0  0  0
 328  1  0   5 253 252  1  0
 329  0  1   1   0   0  0  0
 330  0  0   0 247 246  0  0
 331  0  2   4   0   0  0  0
 332  1  0   5 249 248  1  0
 333  0  1   1   0   0  0  0
 334  0  0   0 243 242  0  0
 335  0  2   4   0   0  0  0
 336  1  0   5 245 244  1  0
 337  0  1   1   0   0  0  0
[RF]
1      336.453 1 2 100 0 0
2          500 3 4 420 0 0

# Format of trapezoid gradients:
# id amplitude rise flat fall delay
# ..      Hz/m   us   us   us    us
[TRAP]
 1       444444  70 3000  70  30
 2      21307.9  10 24490  10   0
 3     -2628.08  10 24490  10   0
 4  1.51323e+06 210    0 210   0
 5  1.69492e+06 240  350 240   0
 6       396992  60 2560  60 25140
 7     -48964.3  60 2560  60 25140
 8      21338.6  10 24490  10   0
 9      -2366.4  10 24490  10   0
10       397563  60 2560  60 25140
11     -44088.9  60 2560  60 25140
12        21366  10 24490  10   0
13     -2104.37  10 24490  10   0
14       398074  60 2560  60 25140
15     -39206.9  60 2560  60 25140
16      21390.2  10 24490  10   0
17     -1842.02  10 24490  10   0
18       398525  60 2560  60 25140
19     -34318.9  60 2560  60 25140
20      21411.2  10 24490  10   0
21     -1579.39  10 24490  10   0
22       398916  60 2560  60 25140
23     -29425.8  60 2560  60 25140
24        21429  10 24490  10   0
25     -1316.52  10 24490  10   0
26       399247  60 2560  60 25140
27     -24528.3  60 2560  60 25140
28      21443.5  10 24490  10   0
29     -1053.45  10 24490  10   0
30       399518  60 2560  60 25140
31     -19627.1  60 2560  60 25140
32      21454.8  10 24490  10   0
33     -790.229  10 24490  10   0
34       399729  60 2560  60 25140
35     -14722.9  60 2560  60 25140
36      21462.9  10 24490  10   0
37     -526.885  10 24490  10   0
38       399880  60 2560  60 25140
39     -9816.49  60 2560  60 25140
40      21467.8  10 24490  10   0
41     -263.462  10 24490  10   0
42       399970  60 2560  60 25140
43     -4908.62  60 2560  60 25140
44      21469.4  10 24490  10   0
45       400000  60 2560  60 25140
46      263.462  10 24490  10   0
47      4908.62  60 2560  60 25140
48      526.885  10 24490  10   0
49      9816.49  60 2560  60 25140
50      790.229  10 24490  10   0
51      14722.9  60 2560  60 25140
52      1053.45  10 24490  10   0
53      19627.1  60 2560  60 25140
54      1316.52  10 24490  10   0
55      24528.3  60 2560  60 25140
56      1579.39  10 24490  10   0
57      29425.8  60 2560  60 25140
58      1842.02  10 24490  10   0
59      34318.9  60 2560  60 25140
60      2104.37  10 24490  10   0
61      39206.9  60 2560  60 25140
62       2366.4  10 24490  10   0
63      44088.9  60 2560  60 25140
64      2628.08  10 24490  10   0
65      48964.3  60 2560  60 25140
66      21274.1  10 24490  10   0
67      2889.37  10 24490  10   0
68       396361  60 2560  60 25140
69      53832.3  60 2560  60 25140
70        21237  10 24490  10   0
71      3150.21  10 24490  10   0
72       395671  60 2560  60 25140
73      58692.2  60 2560  60 25140
74      21196.8  10 24490  10   0
75      3410.59  10 24490  10   0
76       394921  60 2560  60 25140
77      63543.3  60 2560  60 25140
78      21153.3  10 24490  10   0
79      3670.45  10 24490  10   0
80       394111  60 2560  60 25140
81      68384.8  60 2560  60 25140
82      21106.7  10 24490  10   0
83      3929.75  10 24490  10   0
84       393242  60 2560  60 25140
85        73216  60 2560  60 25140
86      21056.9  10 24490  10   0
87      4188.47  10 24490  10   0
88       392314  60 2560  60 25140
89      78036.1  60 2560  60 25140
90      21003.9  10 24490  10   0
91      4446.55  10 24490  10   0
92       391327  60 2560  60 25140
93      82844.6  60 2560  60 25140
94      20947.7  10 24490  10   0
95      4703.97  10 24490  10   0
96       390281  60 2560  60 25140
97      87640.5  60 2560  60 25140
98      20888.4  10 24490  10   0
99      4960.68  10 24490  10   0
100       389176  60 2560  60 25140
101      92423.2  60 2560  60 25140
102        20826  10 24490  10   0
103      5216.64  10 24490  10   0
104       388013  60 2560  60 25140
105      97192.1  60 2560  60 25140
106      20760.4  10 24490  10   0
107      5471.81  10 24490  10   0
108       386791  60 2560  60 25140
109       101946  60 2560  60 25140
110      20691.7  10 24490  10   0
111      5726.16  10 24490  10   0
112       385510  60 2560  60 25140
113       106685  60 2560  60 25140
114      20619.9  10 24490  10   0
115      5979.65  10 24490  10   0
116       384172  60 2560  60 25140
117       111408  60 2560  60 25140
118      20544.9  10 24490  10   0
119      6232.23  10 24490  10   0
120       382776  60 2560  60 25140
121       116114  60 2560  60 25140
122      20466.9  10 24490  10   0
123      6483.88  10 24490  10   0
124       381322  60 2560  60 25140
125       120802  60 2560  60 25140
126      20385.8  10 24490  10   0
127      6734.55  10 24490  10   0
128       379811  60 2560  60 25140
129       125473  60 2560  60 25140
130      20301.6  10 24490  10   0
131      6984.21  10 24490  10   0
132       378243  60 2560  60 25140
133       130124  60 2560  60 25140
134      20214.4  10 24490  10   0
135      7232.82  10 24490  10   0
136       376618  60 2560  60 25140
137       134756  60 2560  60 25140
138      20124.1  10 24490  10   0
139      7480.34  10 24490  10   0
140       374936  60 2560  60 25140
141       139367  60 2560  60 25140
142      20030.8  10 24490  10   0
143      7726.73  10 24490  10   0
144       373197  60 2560  60 25140
145       143958  60 2560  60 25140
146      19934.5  10 24490  10   0
147      7971.95  10 24490  10   0
148       371402  60 2560  60 25140
149       148527  60 2560  60 25140
150      19835.1  10 24490  10   0
151      8215.98  10 24490  10   0
152       369552  60 2560  60 25140
153       153073  60 2560  60 25140
154      19732.8  10 24490  10   0
155      8458.77  10 24490  10   0
156       367646  60 2560  60 25140
157       157597  60 2560  60 25140
158      19627.5  10 24490  10   0
159      8700.28  10 24490  10   0
160       365684  60 2560  60 25140
161       162097  60 2560  60 25140
162      19519.3  10 24490  10   0
163      8940.49  10 24490  10   0
164       363667  60 2560  60 25140
165       166572  60 2560  60 25140
166      19408.1  10 24490  10   0
167      9179.35  10 24490  10   0
168       361596  60 2560  60 25140
169       171022  60 2560  60 25140
170        19294  10 24490  10   0
171      9416.82  10 24490  10   0
172       359470  60 2560  60 25140
173       175446  60 2560  60 25140
174        19177  10 24490  10   0
175      9652.88  10 24490  10   0
176       357290  60 2560  60 25140
177       179845  60 2560  60 25140
178      19057.1  10 24490  10   0
179      9887.48  10 24490  10   0
180       355056  60 2560  60 25140
181       184215  60 2560  60 25140
182      18934.3  10 24490  10   0
183      10120.6  10 24490  10   0
184       352769  60 2560  60 25140
185       188559  60 2560  60 25140
186      18808.7  10 24490  10   0
187      10352.2  10 24490  10   0
188       350428  60 2560  60 25140
189       192874  60 2560  60 25140
190      18680.2  10 24490  10   0
191      10582.2  10 24490  10   0
192       348035  60 2560  60 25140
193       197159  60 2560  60 25140
194        18549  10 24490  10   0
195      10810.7  10 24490  10   0
196       345589  60 2560  60 25140
197       201415  60 2560  60 25140
198      18414.9  10 24490  10   0
199      11037.5  10 24490  10   0
200       343091  60 2560  60 25140
201       205641  60 2560  60 25140
202      18278.1  10 24490  10   0
203      11262.6  10 24490  10   0
204       340542  60 2560  60 25140
205       209836  60 2560  60 25140
206      18138.5  10 24490  10   0
207      11486.1  10 24490  10   0
208       337941  60 2560  60 25140
209       213999  60 2560  60 25140
210      17996.2  10 24490  10   0
211      11707.8  10 24490  10   0
212       335290  60 2560  60 25140
213       218130  60 2560  60 25140
214      17851.1  10 24490  10   0
215      11927.8  10 24490  10   0
216       332588  60 2560  60 25140
217       222228  60 2560  60 25140
218      17703.4  10 24490  10   0
219      12145.9  10 24490  10   0
220       329836  60 2560  60 25140
221       226293  60 2560  60 25140
222        17553  10 24490  10   0
223      12362.2  10 24490  10   0
224       327034  60 2560  60 25140
225       230323  60 2560  60 25140
226        17400  10 24490  10   0
227      12576.7  10 24490  10   0
228       324183  60 2560  60 25140
229       234319  60 2560  60 25140
230      17244.4  10 24490  10   0
231      12789.3  10 24490  10   0
232       321283  60 2560  60 25140
233       238280  60 2560  60 25140
234      17086.1  10 24490  10   0
235        13000  10 24490  10   0
236       318335  60 2560  60 25140
237       242204  60 2560  60 25140
238      16925.3  10 24490  10   0
239      13208.6  10 24490  10   0
240       315339  60 2560  60 25140
241       246093  60 2560  60 25140
242        16762  10 24490  10   0
243      13415.4  10 24490  10   0
244       312295  60 2560  60 25140
245       249944  60 2560  60 25140
246      16596.1  10 24490  10   0
247        13620  10 24490  10   0
248       309204  60 2560  60 25140
249       253757  60 2560  60 25140
250      16427.7  10 24490  10   0
251      13822.7  10 24490  10   0
252       306067  60 2560  60 25140
253       257533  60 2560  60 25140
254      16256.8  10 24490  10   0
255      14023.2  10 24490  10   0
256       302884  60 2560  60 25140
257       261269  60 2560  60 25140
258      16083.5  10 24490  10   0
259      14221.7  10 24490  10   0
260       299655  60 2560  60 25140
261       264966  60 2560  60 25140
262      15907.8  10 24490  10   0
263        14418  10 24490  10   0
264       296380  60 2560  60 25140
265       268624  60 2560  60 25140
266      15729.6  10 24490  10   0
267      14612.1  10 24490  10   0
268       293062  60 2560  60 25140
269       272240  60 2560  60 25140
270      15549.1  10 24490  10   0
271        14804  10 24490  10   0
272       289699  60 2560  60 25140
273       275816  60 2560  60 25140
274      15366.3  10 24490  10   0
275      14993.7  10 24490  10   0
276       286292  60 2560  60 25140
277       279350  60 2560  60 25140
278      15181.1  10 24490  10   0
279       282843  60 2560  60 25140
280     -2889.37  10 24490  10   0
281     -53832.3  60 2560  60 25140
282     -3150.21  10 24490  10   0
283     -58692.2  60 2560  60 25140
284     -3410.59  10 24490  10   0
285     -63543.3  60 2560  60 25140
286     -3670.45  10 24490  10   0
287     -68384.8  60 2560  60 25140
288     -3929.75  10 24490  10   0
289       -73216  60 2560  60 25140
290     -4188.47  10 24490  10   0
291     -78036.1  60 2560  60 25140
292     -4446.55  10 24490  10   0
293     -82844.6  60 2560  60 25140
294     -4703.97  10 24490  10   0
295     -87640.5  60 2560  60 25140
296     -4960.68  10 24490  10   0
297     -92423.2  60 2560  60 25140
298     -5216.64  10 24490  10   0
299     -97192.1  60 2560  60 25140
300     -5471.81  10 24490  10   0
301      -101946  60 2560  60 25140
302     -5726.16  10 24490  10   0
303      -106685  60 2560  60 25140
304     -5979.65  10 24490  10   0
305      -111408  60 2560  60 25140
306     -6232.23  10 24490  10   0
307      -116114  60 2560  60 25140
308     -6483.88  10 24490  10   0
309      -120802  60 2560  60 25140
310     -6734.55  10 24490  10   0
311      -125473  60 2560  60 25140
312     -6984.21  10 24490  10   0
313      -130124  60 2560  60 25140
314     -7232.82  10 24490  10   0
315      -134756  60 2560  60 25140
316     -7480.34  10 24490  10   0
317      -139367  60 2560  60 25140
318     -7726.73  10 24490  10   0
319      -143958  60 2560  60 25140
320     -7971.95  10 24490  10   0
321      -148527  60 2560  60 25140
322     -8215.98  10 24490  10   0
323      -153073  60 2560  60 25140
324     -8458.77  10 24490  10   0
325      -157597  60 2560  60 25140
326     -8700.28  10 24490  10   0
327      -162097  60 2560  60 25140
328     -8940.49  10 24490  10   0
329      -166572  60 2560  60 25140
330     -9179.35  10 24490  10   0
331      -171022  60 2560  60 25140
332     -9416.82  10 24490  10   0
333      -175446  60 2560  60 25140
334     -9652.88  10 24490  10   0
335      -179845  60 2560  60 25140
336     -9887.48  10 24490  10   0
337      -184215  60 2560  60 25140
338     -10120.6  10 24490  10   0
339      -188559  60 2560  60 25140
340     -10352.2  10 24490  10   0
341      -192874  60 2560  60 25140
342     -10582.2  10 24490  10   0
343      -197159  60 2560  60 25140
344     -10810.7  10 24490  10   0
345      -201415  60 2560  60 25140
346     -11037.5  10 24490  10   0
347      -205641  60 2560  60 25140
348     -11262.6  10 24490  10   0
349      -209836  60 2560  60 25140
350     -11486.1  10 24490  10   0
351      -213999  60 2560  60 25140
352     -11707.8  10 24490  10   0
353      -218130  60 2560  60 25140
354     -11927.8  10 24490  10   0
355      -222228  60 2560  60 25140
356     -12145.9  10 24490  10   0
357      -226293  60 2560  60 25140
358     -12362.2  10 24490  10   0
359      -230323  60 2560  60 25140
360     -12576.7  10 24490  10   0
361      -234319  60 2560  60 25140
362     -12789.3  10 24490  10   0
363      -238280  60 2560  60 25140
364       -13000  10 24490  10   0
365      -242204  60 2560  60 25140
366     -13208.6  10 24490  10   0
367      -246093  60 2560  60 25140
368     -13415.4  10 24490  10   0
369      -249944  60 2560  60 25140
370       -13620  10 24490  10   0
371      -253757  60 2560  60 25140
372     -13822.7  10 24490  10   0
373      -257533  60 2560  60 25140
374     -14023.2  10 24490  10   0
375      -261269  60 2560  60 25140
376     -14221.7  10 24490  10   0
377      -264966  60 2560  60 25140
378       -14418  10 24490  10   0
379      -268624  60 2560  60 25140
380     -14612.1  10 24490  10   0
381      -272240  60 2560  60 25140
382       -14804  10 24490  10   0
383      -275816  60 2560  60 25140
384     -14993.7  10 24490  10   0
385      -279350  60 2560  60 25140
386     -15181.1  10 24490  10   0
387      -282843  60 2560  60 25140
388     -15366.3  10 24490  10   0
389      -286292  60 2560  60 25140
390     -15549.1  10 24490  10   0
391      -289699  60 2560  60 25140
392     -15729.6  10 24490  10   0
393      -293062  60 2560  60 25140
394     -15907.8  10 24490  10   0
395      -296380  60 2560  60 25140
396     -16083.5  10 24490  10   0
397      -299655  60 2560  60 25140
398     -16256.8  10 24490  10   0
399      -302884  60 2560  60 25140
400     -16427.7  10 24490  10   0
401      -306067  60 2560  60 25140
402     -16596.1  10 24490  10   0
403      -309204  60 2560  60 25140
404       -16762  10 24490  10   0
405      -312295  60 2560  60 25140
406     -16925.3  10 24490  10   0
407      -315339  60 2560  60 25140
408     -17086.1  10 24490  10   0
409      -318335  60 2560  60 25140
410     -17244.4  10 24490  10   0
411      -321283  60 2560  60 25140
412       -17400  10 24490  10   0
413      -324183  60 2560  60 25140
414       -17553  10 24490  10   0
415      -327034  60 2560  60 25140
416     -17703.4  10 24490  10   0
417      -329836  60 2560  60 25140
418     -17851.1  10 24490  10   0
419      -332588  60 2560  60 25140
420     -17996.2  10 24490  10   0
421      -335290  60 2560  60 25140
422     -18138.5  10 24490  10   0
423      -337941  60 2560  60 25140
424     -18278.1  10 24490  10   0
425      -340542  60 2560  60 25140
426     -18414.9  10 24490  10   0
427      -343091  60 2560  60 25140
428       -18549  10 24490  10   0
429      -345589  60 2560  60 25140
430     -18680.2  10 24490  10   0
431      -348035  60 2560  60 25140
432     -18808.7  10 24490  10   0
433      -350428  60 2560  60 25140
434     -18934.3  10 24490  10   0
435      -352769  60 2560  60 25140
436     -19057.1  10 24490  10   0
437      -355056  60 2560  60 25140
438       -19177  10 24490  10   0
439      -357290  60 2560  60 25140
440       -19294  10 24490  10   0
441      -359470  60 2560  60 25140
442     -19408.1  10 24490  10   0
443      -361596  60 2560  60 25140
444     -19519.3  10 24490  10   0
445      -363667  60 2560  60 25140
446     -19627.5  10 24490  10   0
447      -365684  60 2560  60 25140
448     -19732.8  10 24490  10   0
449      -367646  60 2560  60 25140
450     -19835.1  10 24490  10   0
451      -369552  60 2560  60 25140
452     -19934.5  10 24490  10   0
453      -371402  60 2560  60 25140
454     -20030.8  10 24490  10   0
455      -373197  60 2560  60 25140
456     -20124.1  10 24490  10   0
457      -374936  60 2560  60 25140
458     -20214.4  10 24490  10   0
459      -376618  60 2560  60 25140
460     -20301.6  10 24490  10   0
461      -378243  60 2560  60 25140
462     -20385.8  10 24490  10   0
463      -379811  60 2560  60 25140
464     -20466.9  10 24490  10   0
465      -381322  60 2560  60 25140
466     -20544.9  10 24490  10   0
467      -382776  60 2560  60 25140
468     -20619.9  10 24490  10   0
469      -384172  60 2560  60 25140
470     -20691.7  10 24490  10   0
471      -385510  60 2560  60 25140
472     -20760.4  10 24490  10   0
473      -386791  60 2560  60 25140
474       -20826  10 24490  10   0
475      -388013  60 2560  60 25140
476     -20888.4  10 24490  10   0
477      -389176  60 2560  60 25140
478     -20947.7  10 24490  10   0
479      -390281  60 2560  60 25140
480     -21003.9  10 24490  10   0
481      -391327  60 2560  60 25140
482     -21056.9  10 24490  10   0
483      -392314  60 2560  60 25140
484     -21106.7  10 24490  10   0
485      -393242  60 2560  60 25140
486     -21153.3  10 24490  10   0
487      -394111  60 2560  60 25140
488     -21196.8  10 24490  10   0
489      -394921  60 2560  60 25140
490       -21237  10 24490  10   0
491      -395671  60 2560  60 25140
492     -21274.1  10 24490  10   0
493      -396361  60 2560  60 25140
494     -21307.9  10 24490  10   0
495      -396992  60 2560  60 25140
496     -21338.6  10 24490  10   0
497      -397563  60 2560  60 25140
498       -21366  10 24490  10   0
499      -398074  60 2560  60 25140
500     -21390.2  10 24490  10   0
501      -398525  60 2560  60 25140
502     -21411.2  10 24490  10   0
503      -398916  60 2560  60 25140
504       -21429  10 24490  10   0
505      -399247  60 2560  60 25140
506     -21443.5  10 24490  10   0
507      -399518  60 2560  60 25140
508     -21454.8  10 24490  10   0
509      -399729  60 2560  60 25140
510     -21462.9  10 24490  10   0
511      -399880  60 2560  60 25140
512     -21467.8  10 24490  10   0
513      -399970  60 2560  60 25140

# Format of ADC events:
# id num dwell delay freq phase
# ..  ..    ns    us   Hz   rad
[ADC]
1 256 10000 25200 0 0

# Format of delays:
# id delay (us)
[DELAYS]
1 120930

# Sequence Shapes
[SHAPES]

shape_id 1
num_samples 3020
0.0001334
0.0001336
0.0001338
0.000134
0.0001341
0.0001344
0.0001345
0.0001347
0.0001349
0.0001351
0.0001353
0.0001354
0.0001357
0.0001359
0.0001361
0.0001362
0.0001365
0.0001367
0.0001369
0.0001371
0.0001373
0.0001375
0.0001377
0.000138
0.0001381
0.0001384
0.0001386
0.0001388
0.000139
0.0001393
0.0001394
0.0001397
0.00014
0.0001401
0.0001404
0.0001407
0.0001408
0.0001411
0.0001413
0.0001416
0.0001418
0.0001421
0.0001423
0.0001425
0.0001428
0.000143
0.0001433
0.0001435
0.0001438
0.0001441
0.0001442
0.0001446
0.0001448
0.0001451
0.0001453
0.0001456
0.0001459
0.0001461
0.0001464
0.0001466
0.000147
0.0001471
0.0001475
0.0001478
0.000148
0.0001483
0.0001486
0.0001488
0.0001492
0.0001494
0.0001497
0.00015
0.0001503
0.0001505
0.0001509
0.0001511
0.0001514
0.0001518
0.000152
0.0001523
0.0001526
0.0001529
0.0001533
0.0001535
0.0001538
0.0001541
0.0001544
0.0001547
0.0001551
0.0001553
0.0001557
0.0001559
0.0001563
0.0001566
0.0001569
0.0001572
0.0001575
0.0001578
0.0001582
0.0001585
0.0001588
0.0001591
0.0001594
0.0001597
0.0001601
0.0001604
0.0001608
0.000161
0.0001614
0.0001617
0.000162
0.0001624
0.0001627
0.000163
0.0001633
0.0001637
0.000164
0.0001644
0.0001647
0.000165
0.0001653
0.0001657
0.000166
0.0001664
0.0001667
0.000167
0.0001674
0.0001677
0.000168
0.0001684
0.0001687
0.0001691
0.0001694
0.0001698
0.0001701
0.0001704
0.0001708
0.0001711
0.0001714
0.0001718
0.0001722
0.0001725
0.0001728
0.0001732
0.0001735
0.0001738
0.0001742
0.0001746
0.0001749
0.0001752
0.0001756
